Times,H,V,M,North Pole,South Pole,Maximum Radius
0.0,1.0,-0.6682065548915246,0,2.0,0.0,1.0
0.0015341680756939071,0.9989748588355161,-0.6682065548915246,1,1.998974858835516,-0.0010251411644839337,1.0
0.0030683361513878142,0.9979498381333993,-0.6681280352240028,2,1.9979505985351889,-0.0014998196492862492,1.0000854280823073
0.004602504227081722,0.9969251322397301,-0.6679228370762181,2,1.996928407853885,-0.0005804896170585883,1.0003816068377656
0.0061366723027756285,0.995900452350057,-0.667905887175779,2,1.9959055133728003,0.00028015442041395833,1.0006463525240403
0.007670840378469535,0.9948758087982313,-0.6678822014740138,2,1.994881789701639,0.001064545515268911,1.0008686359359427
0.009205008454163444,0.9938512110465589,-0.667852348060974,2,1.9938572327600959,0.0017612846779953006,1.001039630811724
0.01073917652985735,0.9928266676021957,-0.6678169495215197,2,1.992831943760531,0.0023652039045146678,1.0011528745190763
0.012273344605551257,0.9918023480413448,-0.6676710179799017,3,1.991805012597129,0.00271095115799469,1.001086182337616
0.013807512681245164,0.9907793422862975,-0.6668146543100233,3,1.9907696273621394,0.0017096412650496884,1.0012694017678214
0.01534168075693907,0.9897563907794272,-0.6667792943139895,3,1.9897364712900902,0.0007884351814856361,1.001854336056373
0.01687584883263298,0.9887335255294096,-0.6667230704528461,3,1.9887060209219247,-2.5542807286171865e-05,1.0023779685957395
0.018410016908326887,0.9877107752405672,-0.6666481365673115,3,1.987678361447267,-0.0007152323908226066,1.0028253051971079
0.019944184984020792,0.9866881649579149,-0.6665568778633514,3,1.9866532306530877,-0.0012737338322917902,1.0031853322303166
0.0214783530597147,0.9856657159222846,-0.666451773980378,3,1.9856301012582929,-0.0017035369258326938,1.0034510719554686
0.023012521135408606,0.984643445618107,-0.666335273411904,3,1.9846082858194851,-0.0020150577711380846,1.003619406307711
0.024546689211102514,0.9836213679858092,-0.6662096862075754,3,1.9835870475744346,-0.00222470241851902,1.003690708205578
0.026080857286796422,0.9825994937635203,-0.6660770996859811,3,1.9825657020503975,-0.0023526932455764094,1.003668328276854
0.027615025362490327,0.9815778309190528,-0.6659393195920099,3,1.9815436975119574,-0.0024208855984312327,1.0035579889818784
0.029149193438184236,0.9805563851327481,-0.6657978369434043,3,1.980520666695844,-0.0024507727910662025,1.0034441672709318
0.03068336151387814,0.9795372048405913,-0.6643211446672048,4,1.979510203316166,-0.0015512181670823688,1.0043224417126677
0.03221752958957205,0.9785181937029173,-0.6642108865504959,3,1.9784954706255236,-0.0007623074906994987,1.0051266358608086
0.03375169766526596,0.9785181841234551,-0.6642171306264567,3,1.9784954061723137,-0.0007665740594502424,1.0051249175030703
0.03528586574095986,0.9774993649114933,-0.6640857857122745,4,1.9774761268870946,-0.000119092723532499,1.0058303904074481
0.036820033816653774,0.9764807966825338,-0.6639221902063738,4,1.9764528522177143,0.00038730236907047466,1.006425671751815
0.03835420189234768,0.975462520773172,-0.6637316507198082,4,1.9754264529098924,0.0007585989347342892,1.006902620071815
0.039888369968041584,0.9744445705575842,-0.6635193573086282,4,1.974398019427657,0.0010088361858432426,1.0072578629819449
0.04142253804373549,0.9734269719614597,-0.6632901650389822,4,1.973368693569901,0.0011578079293109722,1.007492293379782
0.0429567061194294,0.9724097442330096,-0.6630484264183877,4,1.9723395180501826,0.0012285964461513643,1.0076104013202598
0.044490874195123306,0.9713929008871064,-0.6627978785463129,4,1.9713113207813935,0.001245185964918627,1.0076195063510118
0.04602504227081721,0.9703764507396283,-0.6625415843165982,4,1.9702846438233184,0.001230363284144942,1.0075289532017568
0.04755921034651112,0.9693603989560127,-0.6622819231564206,4,1.969259719794879,0.0012040568259293893,1.0073493273258003
0.04909337842220503,0.9683447480494675,-0.6620206238392996,4,1.968236492005874,0.0011822018200104978,1.0072386612092403
0.05062754649789893,0.9673294987787018,-0.6617588299811912,4,1.9672146693967314,0.0011761558743942357,1.007947673879598
0.052161714573592845,0.9663146509108134,-0.6614971879331889,4,1.966193804077939,0.0011926323245694537,1.00860748322089
0.05369588264928675,0.9653002038306646,-0.6612359468436155,4,1.965173378012019,0.0012340733514712987,1.0092084944188238
0.055230050724980655,0.9642861569924402,-0.6609750615269089,4,1.9641528860672324,0.001299353937624037,1.009744059719767
0.05676421880067457,0.9632725102211863,-0.6607142902485078,4,1.9631319049418066,0.0013846923801713595,1.010210358965678
0.05829838687636847,0.9622592638813853,-0.6604532813934444,4,1.962110140798019,0.0014846426070901364,1.0106061269659883
0.059832554952062376,0.96124826062247,-0.658991198508612,5,1.961075483149871,0.0011343642621851613,1.0111577184074902
0.06136672302775628,0.9602379276764468,-0.658554275786416,5,1.9600404792718948,0.0007667533432439422,1.0116463252229624
0.0629008911034502,0.9592280502675888,-0.658257347977449,5,1.9590076111715855,0.00045323994425527925,1.0120342720939755
0.0644350591791441,0.9582186688647469,-0.6579340417999501,5,1.9579771985853114,0.00019365910083790627,1.0123206936421254
0.065969227254838,0.9572098167091386,-0.6575890683633719,5,1.9569492834684747,-1.4529810921648512e-05,1.0125069488229872
0.06750339533053192,0.95620152036434,-0.6572267802811919,5,1.9559236551085681,-0.00017594349706184786,1.0125963317265756
0.06903756340622583,0.9551938003988077,-0.6568510852870053,5,1.954899903761717,-0.00029682883488568734,1.0125937364508304
0.07057173148191973,0.9541866721578464,-0.6564653879307384,5,1.95387749251752,-0.0003845200245604641,1.0125052959409335
0.07210589955761364,0.9531801465818374,-0.6560725594252179,5,1.9528558360314006,-0.0004468542677033005,1.0123380144904033
0.07364006763330755,0.9521742310299466,-0.6556749340750242,5,1.951834375303394,-0.0004916011584424895,1.012766224584566
0.07517423570900145,0.9511689300730876,-0.655274329316549,5,1.9508126395532797,-0.0005259549734858426,1.013493074739403
0.07670840378469536,0.9501642462261322,-0.6548720853162361,5,1.9497902890318355,-0.0005561285283635087,1.014169403806367
0.07824257186038926,0.9491601805966716,-0.6544691193671301,5,1.9487671358376883,-0.0005870738024650324,1.014789593099666
0.07977673993608317,0.9481567334353993,-0.6540659900111215,5,1.9477431430035954,-0.0006223398581753914,1.0153495258601064
0.08131090801177708,0.947153904580883,-0.653662965879907,5,1.9467184048654782,-0.0006640643695606796,1.0158465983170968
0.08284507608747098,0.9461516937985494,-0.6532600946479498,5,1.9456931137325781,-0.0007130827787916738,1.0162796574565405
0.08437924416316489,0.9451501010197565,-0.6528572681579957,5,1.9446675189737341,-0.0007691297921709195,1.0166488771225752
0.0859134122388588,0.9441491264915604,-0.6524542806323614,5,1.943641884797906,-0.0008311022446120253,1.0169555867578746
0.0874475803145527,0.9431487708510596,-0.6520508778337535,5,1.9426164523364533,-0.0008973504717242342,1.0172020684552525
0.08898174839024661,0.9421490351400044,-0.6516467960024994,5,1.9415914103256329,-0.00096596697465956,1.0173913380896114
0.09051591646594052,0.9411499207757731,-0.6512417902968367,5,1.9405668769936084,-0.0010350457391232748,1.0175269252613959
0.09205008454163442,0.9401514294940515,-0.6508356532383603,5,1.9395428939476511,-0.0011028922313358613,1.0176126648261843
0.09358425261732833,0.93915356327684,-0.6504282242741013,5,1.938519431184765,-0.0011681718778103756,1.0176525101755298
0.09511842069302225,0.9381563242770727,-0.650019391986141,5,1.9374964010131461,-0.0012299927816991074,1.0176503754585493
0.09665258876871614,0.9371597147484301,-0.6496090907067792,5,1.9364736778029723,-0.001287925683002289,1.0176100108727593
0.09818675684441006,0.9361637369861544,-0.649197293344204,5,1.9354511201356144,-0.0013419700655247224,1.0175349122568156
0.09972092492010397,0.9351698816966618,-0.6478138251201729,6,1.9344385513755606,-0.0011550063814608214,1.0178311736957415
0.10125509299579787,0.934177458226217,-0.6468805381678917,6,1.933429435513713,-0.000863152659593136,1.018422505182377
0.10278926107149178,0.933185740489877,-0.6464205272237342,6,1.9324173958236537,-0.0006050506132087019,1.018988859527393
0.10432342914718569,0.9321947675203232,-0.6459350740339308,6,1.9314021558101229,-0.0003862089867470164,1.019535150197997
0.10585759722287959,0.9312045728641365,-0.6454277545429942,6,1.9303838377290072,-0.00020880243376919516,1.0200645965018496
0.1073917652985735,0.9302151844658276,-0.644902220287252,6,1.9293628930451616,-7.186637160461196e-05,1.020578649644189
0.10892593337426741,0.9292266248008572,-0.6443620360978561,6,1.9283400014037086,2.8237269236841556e-05,1.021077072275504
0.11046010144996131,0.9282389112249773,-0.643810539098372,6,1.927315955186033,9.71634178312808e-05,1.0215581460656815
0.11199426952565522,0.9272520564952782,-0.6432507267840865,6,1.9262915462602617,0.00014182549806351918,1.0220189745292958
0.11352843760134913,0.9262660694114359,-0.6426851786734089,6,1.9252674690030536,0.00016962318454649683,1.022455844700924
0.11506260567704303,0.9252809555237339,-0.6421160127820406,6,1.9242442496664633,0.00018773391053239497,1.0228646111729
0.11659677375273694,0.9242967178569806,-0.6415448752628901,6,1.9232222074026848,0.00020252882378613002,1.023241069014402
0.11813094182843085,0.9233133576056123,-0.6409729591874671,6,1.9222014474570033,0.00021915291326279895,1.0235812875228274
0.11966510990412475,0.9223308747640481,-0.6404010467496726,6,1.9211818828221605,0.00024128677519441588,1.0238818838177792
0.12119927797981866,0.9213492686666255,-0.6398295682034213,6,1.9201632774834767,0.00027108648352380804,1.0241402231366377
0.12273344605551256,0.9203685384221115,-0.6392586705798038,6,1.9191453025426526,0.0003092803356946616,1.0243545405337475
0.12426761413120647,0.9193886832379056,-0.6386882895882829,6,1.918127596050485,0.0003553882855231727,1.0245239858383501
0.1258017822069004,0.9184097026378566,-0.6381182189611786,6,1.917109818178072,0.0004080223689353346,1.0246485996643053
0.12733595028259428,0.9174315965845815,-0.6375481727011276,6,1.916091695138585,0.00046522440660712316,1.0247292326470108
0.1288701183582882,0.9164543655220166,-0.6369778370749056,6,1.915073047671899,0.0005248001613160636,1.0247674227599528
0.1304042864339821,0.9154780103566036,-0.6364069106127264,6,1.914053802524583,0.000584615915768083,1.0247652465616026
0.131938454509676,0.9145025323961647,-0.6358351316870243,6,1.913033987824888,0.0006428328183050169,1.0252572180445887
0.13347262258536993,0.9135279332644667,-0.6352622943592562,6,1.9120137152627068,0.0006980649228298663,1.0258568411081863
0.13500679066106383,0.9125542148071151,-0.6346882540306206,6,1.9109931533352515,0.0007494573001567417,1.0264245120806388
0.13654095873675773,0.9115813790012214,-0.6341129249829545,6,1.9099724965209863,0.0007966898031683822,1.026958315049503
0.13807512681245165,0.9106094278776895,-0.6335362721533216,6,1.90895193511858,0.000839919211485185,1.0274568972730567
0.13960929488814555,0.9096383634613844,-0.6329582994784084,6,1.9079316297485946,0.0008796770953738431,1.0279194764746493
0.14114346296383945,0.9086681877311965,-0.6323790369247071,6,1.9069116933436727,0.0009167427056047117,1.0283458142680852
0.14267763103953338,0.9076989025993492,-0.6317985279474078,6,1.905892182061548,0.0009520097098978386,1.0287361625785707
0.14421179911522727,0.9067305099073186,-0.631216818660839,6,1.9048730951588406,0.0009863630955658786,1.029091190992598
0.14574596719092117,0.9057630114345195,-0.6306339495178244,6,1.903854382648902,0.0010205786382996296,1.0294119031848048
0.1472801352666151,0.9047964089153877,-0.6300499498365162,6,1.902835958672008,0.0010552526632990888,1.0296995500511021
0.148814303342309,0.9038307040605723,-0.629464835121625,6,1.9018177180082816,0.001090765043746278,1.0299555460946392
0.1503484714180029,0.9028658985784891,-0.6288786068285894,6,1.900799553077106,0.0011272740518917246,1.030181394158283
0.1518826394936968,0.9019021903877824,-0.6281633713898551,7,1.899780078552387,0.0011428707613534428,1.0303805233627814
0.15341680756939072,0.9009415904115152,-0.626137377961455,7,1.8987462384690628,0.0009157638000216739,1.0305749436499392
0.15495097564508462,0.8999819585221298,-0.6255063604757078,7,1.897714732522421,0.0007115474991723492,1.0307572987994515
0.1564851437207785,0.8990233375387798,-0.6248474326493967,7,1.896686069975586,0.0005352771624607122,1.030933441797822
0.15801931179647244,0.8980657649299418,-0.6241640821557123,7,1.8956604015792116,0.00038945484085606275,1.0311074006856613
0.15955347987216634,0.8971092724631601,-0.6234600249709277,7,1.894637551579552,0.00027413086404282083,1.0312813227863362
0.16108764794786024,0.8961538861565119,-0.6227390087073577,7,1.8936170846619733,0.0001872154450983654,1.0314555579101181
0.16262181602355416,0.8951996264980416,-0.622004637946038,7,1.8925983948705534,0.00012494438771915028,1.031628858425179
0.16415598409924806,0.8942465088852641,-0.6212602307907917,7,1.8915808025300431,8.243460433088323e-05,1.0319603602693925
0.16569015217494196,0.8932945442281479,-0.620508712310121,7,1.8905636460812816,5.4264430816242104e-05,1.0324690322847927
0.16722432025063588,0.8923437396557267,-0.6197525469895057,7,1.8895463581616858,3.50197317926515e-05,1.0329656052514156
0.16875848832632978,0.8913940992681952,-0.6189937090836612,7,1.8885285187069916,1.975805250808982e-05,1.033453544806321
0.17029265640202368,0.89044562488218,-0.6182336870659481,7,1.8875098817437246,4.357739276650285e-06,1.0339356249749234
0.1718268244777176,0.8894983167257756,-0.617473516372003,7,1.8864903763275862,-1.426495769007996e-05,1.034413766174739
0.1733609925534115,0.888552174050733,-0.6167138334009564,7,1.8854700852922968,-3.807214061546382e-05,1.0348889510506663
0.1748951606291054,0.8876071956407179,-0.6159549432597676,7,1.8844492077739607,-6.794160506118363e-05,1.035361217069898
0.17642932870479933,0.8866633802057615,-0.615196893944919,7,1.8834280126964384,-0.00010380255765807256,1.035829718588266
0.17796349678049322,0.8857207266630527,-0.6144395504269984,7,1.8824067905337294,-0.00014484041228202127,1.0362928462488137
0.17949766485618712,0.8847792343124364,-0.6136826632834316,7,1.88138580983796,-0.00018973877657335603,1.0367483883480464
0.18103183293188105,0.8838389029210173,-0.6129259279455886,7,1.88036528347374,-0.000236927859287972,1.0371937172848493
0.18256600100757495,0.8828997327349992,-0.6121690321272006,7,1.8793453475299415,-0.00028481270525215763,1.0376259843050455
0.18410016908326884,0.8819617244384277,-0.6114116904350446,7,1.8783260538010955,-0.0003319610102694437,1.0380423072491494
0.18563433715896277,0.8810248790781029,-0.6106536664185235,7,1.8773073748271503,-0.00037723778582765544,1.0384399385832692
0.18716850523465667,0.8800891979720172,-0.6098947833094589,7,1.876289218975732,-0.00041988185286301327,1.0388164042708403
0.18870267331035057,0.8791546826156812,-0.6091349253980082,7,1.8752714520863614,-0.0004595261847586407,1.0391696076413612
0.1902368413860445,0.8782213345971309,-0.6083740323745599,7,1.874253921823252,-0.0004961698316552354,1.0394978959728722
0.1917710094617384,0.8772891555276804,-0.6076120890658349,7,1.8732364810698017,-0.000530113122517939,1.0398000907239449
0.1933051775374323,0.8763581469919828,-0.6068491128500049,7,1.8722190073425473,-0.0005618698939838795,1.040075485000637
0.1948393456131262,0.8754283105179509,-0.6060851407114733,7,1.8712014161576511,-0.0005920707068759468,1.0403238137817947
0.1963735136888201,0.8744996475647586,-0.6053202174554346,7,1.8701836673805974,-0.0006213696462300522,1.0405452035959244
0.197907681764514,0.8735721595255627,-0.6045543861133892,7,1.8691657646652704,-0.0006503647577201788,1.040740108766599
0.19944184984020794,0.8726458477407422,-0.6037876810868069,7,1.8681477490027367,-0.0006795389216230907,1.0409092411067937
0.20097601791590183,0.8717207135172738,-0.6030201241476669,7,1.8671296880533592,-0.0007092244820495752,1.0410534991774236
0.20251018599159573,0.8707967581502092,-0.6022517230692491,7,1.866111663276937,-0.0007395916624075571,1.0413354690380698
0.20404435406728966,0.8698739829429352,-0.6014824724185482,7,1.8650937569008672,-0.0007706580493493931,1.041921483827743
0.20557852214298356,0.8689523892238323,-0.6007123559039921,7,1.8640760405148422,-0.0008023144424376127,1.0424877462122653
0.20711269021867745,0.8680319783579368,-0.5999413496329075,7,1.8630585666228168,-0.0008343612502711428,1.0430332584739594
0.20864685829437138,0.8671127517531363,-0.5991694256737139,7,1.8620413639073539,-0.0008665493542584501,1.0435573060125394
0.21018102637006528,0.8661947108612085,-0.598396555418136,7,1.8610244363605861,-0.000898619850922544,1.0440594406680253
0.21171519444575918,0.8652778571745744,-0.5976227123741809,7,1.860007765893572,-0.000930338145278875,1.0445394538270791
0.2132493625214531,0.8643621922199775,-0.5968478741697256,7,1.8589913176167085,-0.0009615192862170163,1.0449973430873924
0.214783530597147,0.8634477175504215,-0.5960720236877399,7,1.8579750467281562,-0.0009920429869302305,1.0454332759823666
0.2163176986728409,0.8625344347366329,-0.5952951493762363,7,1.8569589058678515,-0.0010218582561736245,1.0458475537620875
0.21785186674853482,0.861622345359111,-0.5945172448654656,7,1.8559428518794374,-0.001050978816211412,1.0462405775742938
0.21938603482422872,0.8607126809333682,-0.5929366150650144,8,1.8549353372123218,-0.0009776461933334035,1.0466215047233938
0.22092020289992262,0.859805537602336,-0.5912933174690436,8,1.8539355596202105,-0.000805234525256826,1.0469895277079961
0.22245437097561654,0.8588996839502966,-0.5904526801143141,8,1.8529330749544857,-0.000651556743968662,1.0473339941863096
0.22398853905131044,0.8579951610676594,-0.5895852592475106,8,1.8519275032285945,-0.0005203678145065949,1.0476553885331852
0.22552270712700434,0.8570920045528115,-0.5886946346731939,8,1.850918861403429,-0.00041333196630144453,1.0479551047953342
0.22705687520269827,0.8561902442321385,-0.5877845686921183,8,1.8499075057154037,-0.0003301343979952298,1.0482353714996597
0.22859104327839216,0.8552899041789537,-0.5868588112665278,8,1.8488940407360035,-0.0002687642787446709,1.048499095831187
0.23012521135408606,0.8543910029933832,-0.5859209299241477,8,1.8478792109897249,-0.0002259199081668939,1.0487496474046216
0.23165937942978,0.8534935542921589,-0.5849741729363365,8,1.8468637910191479,-0.00019748055647828,1.0489906057729466
0.23319354750547389,0.8525975673496857,-0.5840213707145703,8,1.8458484878216592,-0.00017898977752661693,1.0492254970706334
0.23472771558116778,0.8517030478295898,-0.5830648768331868,8,1.8448338661120087,-0.00016610101022818125,1.0494575439414784
0.2362618836568617,0.8508099985486828,-0.5821065469003687,8,1.8438203025329445,-0.0001549466810897293,1.0496894495395572
0.2377960517325556,0.8499184202220038,-0.5811477508914602,8,1.8428079704124603,-0.00014240511396323985,1.0499232314633276
0.2393302198082495,0.8490283121472236,-0.5801894126741084,8,1.841796852556321,-0.00012625358812989873,1.0501601156228004
0.24086438788394343,0.8481396727979976,-0.5792320693571698,8,1.8407867763402286,-0.00010520923400603177,1.0504831529951693
0.24239855595963733,0.8472525003076677,-0.5782759427637397,8,1.8397774633220778,-7.887077833856893e-05,1.0509944701835168
0.24393272403533123,0.8463667928359836,-0.5773210156805296,8,1.838768584834383,-4.7582508509225185e-05,1.051493719211316
0.24546689211102513,0.845482548821404,-0.576367106439572,8,1.83775981546372,-1.2246729155118707e-05,1.0519835664491353
0.24700106018671905,0.8445997671294473,-0.5754139366753671,8,1.8367508777555908,2.588761173138998e-05,1.0524666419444477
0.24853522826241295,0.8437184471131679,-0.5744611886027317,8,1.835741573579564,6.543420201021721e-05,1.0529453793861687
0.2500693963381069,0.8428385886050694,-0.5735085497072904,8,1.834731799987579,0.00010505489107559551,1.0534218754502724
